x,y,id,z
314014.9316,6056340.9727,1,-24.1610
313887.1380,6056437.0033,2,-24.0000
313788.9697,6056396.4767,3,-24.0000
313655.8763,6056510.3703,4,-24.0000
313484.2688,6056613.4127,5,-24.3900
313310.0853,6056710.9610,6,-25.3567
313136.1195,6056809.1978,7,-25.9667
312962.1092,6056907.6062,8,-25.7872
312788.1323,6057006.0255,9,-25.7872
312614.1832,6057104.4071,10,-26.5731
312440.2545,6057202.7696,11,-26.9986
312266.3425,6057301.1102,12,-26.3937
312092.4734,6057399.4307,13,-24.5445
311918.6380,6057497.7174,14,-23.5763
311744.8285,6057595.9136,15,-24.3491
311571.3435,6057695.1375,16,-24.6452
311401.8048,6057784.6297,17,-25.2961
311231.5839,6057889.8666,18,-25.8927
311063.0066,6057980.1672,19,-25.8927
310884.2322,6058067.0303,20,-26.0000
310717.2605,6058160.5598,21,-26.1920
310541.1551,6058254.5462,22,-27.6571
310356.1446,6058355.4831,23,-28.4651
310168.2362,6058452.0736,24,-27.2551
309994.0518,6058536.8497,25,-26.4584
309821.2033,6058627.1639,26,-26.7033
309646.5634,6058718.7342,27,-27.0000
309476.4335,6058811.6054,28,-27.0000
309306.5019,6058912.5845,29,-27.0000
309126.3715,6059008.4895,30,-27.0000
308950.8330,6059101.4088,31,-27.2357
308820.2917,6059196.7067,32,-27.4857
308713.3240,6059183.3400,33,-27.9857
308592.2410,6059280.7637,34,-27.9422
308484.9607,6059378.8333,35,-27.8719
308373.2743,6059370.0567,36,-27.8016
308312.5480,6059469.4633,37,-27.1797
308198.9047,6059461.0667,38,-25.8687
308139.8663,6059558.8000,39,-25.1187
308023.6277,6059552.8733,40,-25.0489
307968.6503,6059651.2300,41,-25.1468
307827.3563,6059681.8952,42,-25.4792
307673.8367,6059722.5600,43,-26.0000
307623.0373,6059815.9433,44,-26.0000
307474.7326,6059870.8658,45,-25.2204
307304.4560,6059951.4569,46,-25.2204
307129.7162,6060035.7458,47,-26.2171
306952.9083,6060126.5979,48,-26.3007
306770.3675,6060223.7240,49,-26.5836
306590.2774,6060305.9360,50,-26.8365
306412.1689,6060398.6413,51,-26.3670
306242.2659,6060481.9133,52,-25.7806
306071.3672,6060565.4666,53,-24.8149
305898.3018,6060659.2789,54,-24.5649
305725.3882,6060752.3768,55,-25.0000
305545.5748,6060833.5564,56,-24.7229
305370.2214,6060921.2314,57,-24.3826
305191.0126,6061014.7764,58,-24.4752
305013.9493,6061105.8180,59,-24.8155
304837.3925,6061192.8846,60,-24.9500
304666.3519,6061282.9563,61,-24.9500
304500.4772,6061375.4995,62,-25.0000
304376.7407,6061469.2633,63,-25.0000
304264.0917,6061456.2033,64,-25.2500
304138.8174,6061550.7397,65,-25.1375
303964.2927,6061641.0749,66,-24.1952
303861.3853,6061736.2933,67,-23.6153
303715.8894,6061777.7821,68,-23.3076
303539.3221,6061868.4298,69,-23.0000
303363.1308,6061958.9287,70,-23.5000
303186.9737,6062049.5436,71,-24.0000
303010.6764,6062140.1815,72,-24.0000
302834.1313,6062230.7225,73,-23.9788
302657.0483,6062321.7620,74,-23.9788
302479.0325,6062414.0678,75,-24.0000
302294.7557,6062506.1785,76,-23.3053
302136.9677,6062546.5833,77,-23.3053
302086.0307,6062643.4100,78,-21.8606
301947.8016,6062678.2852,79,-22.0270
301772.8520,6062764.9549,80,-21.2770
301595.7028,6062856.0770,81,-21.3853
301419.4811,6062945.9531,82,-21.8853
301243.7226,6063035.8338,83,-22.0000
301070.4914,6063122.6102,84,-22.0000
300897.5445,6063226.6634,85,-22.0000
300733.7214,6063319.1351,86,-22.2206
314120.7470,6056525.4963,87,-24.0000
313982.6102,6056666.6312,88,-24.0000
313875.7570,6056573.5833,89,-24.0000
313747.3253,6056619.0067,90,-24.0000
313741.6916,6056771.2686,91,-24.0000
313549.1392,6056777.1488,92,-24.2300
313377.7824,6056868.4317,93,-25.2300
313204.0666,6056965.6757,94,-26.0000
313030.5546,6057063.7899,95,-26.0000
312857.1516,6057161.9057,96,-25.7162
312683.6834,6057259.9716,97,-24.2894
312510.2350,6057357.9400,98,-23.9987
312336.9026,6057455.8631,99,-24.4255
312163.6388,6057553.7248,100,-24.0000
311990.4856,6057651.5101,101,-24.0000
311817.3240,6057749.1436,102,-24.0000
311645.0226,6057848.4620,103,-24.5000
311471.0989,6057945.2386,104,-25.5000
311328.4287,6057999.0000,105,-26.0000
311273.7321,6058148.6708,106,-26.0000
311132.6637,6058100.4767,107,-26.0000
311017.8587,6058187.1369,108,-26.0000
310857.5790,6058281.0734,109,-25.8561
310688.5596,6058373.2085,110,-25.6061
310585.0230,6058469.4000,111,-25.0000
310453.0057,6058468.6167,112,-28.0000
310399.1630,6058566.8733,113,-27.0000
310248.5390,6058603.7749,114,-27.0000
310078.1483,6058686.8386,115,-27.0000
309906.5793,6058780.1938,116,-27.0000
309732.3163,6058877.5873,117,-27.0000
309562.8780,6058970.0374,118,-27.0000
309409.1970,6059018.0000,119,-27.0000
309360.0133,6059111.8733,120,-27.0000
309224.5964,6059150.1343,121,-27.0000
309053.1392,6059234.5658,122,-27.0000
308866.7057,6059321.3768,123,-27.4131
308702.1785,6059411.9574,124,-27.4834
308539.8421,6059502.6134,125,-26.7500
308374.8935,6059588.9280,126,-25.6797
308211.1300,6059672.4994,127,-25.0000
308056.1667,6059764.0859,128,-25.1676
307930.4317,6059857.0467,129,-25.4176
307831.3013,6059831.1867,130,-25.9176
307705.3901,6059922.2041,131,-26.0000
307533.2731,6060026.2386,132,-26.0000
307366.2510,6060110.1373,133,-26.0000
307200.6350,6060183.5110,134,-26.0388
307036.5366,6060268.6165,135,-26.4245
306931.9593,6060364.3367,136,-26.8857
306819.3567,6060358.6500,137,-27.0000
306756.8920,6060455.5767,138,-25.9039
306621.9993,6060479.1672,139,-25.7019
306452.7845,6060566.2545,140,-25.0306
306280.8994,6060652.2370,141,-24.2806
306141.3907,6060677.9600,142,-24.1453
306035.6555,6060776.4519,143,-24.4983
305932.7150,6060873.2567,144,-24.7059
305791.2628,6060902.0672,145,-25.0000
305614.0979,6060988.5302,146,-25.0000
305462.1690,6061028.3433,147,-25.0000
305409.1167,6061128.4200,148,-25.0000
305260.0722,6061175.5511,149,-25.0000
305092.2477,6061256.6397,150,-25.0000
304923.7471,6061338.7568,151,-25.0000
304769.0376,6061419.2982,152,-25.0000
304608.4844,6061517.7624,153,-24.3682
304437.7615,6061602.2678,154,-23.6182
304255.7424,6061671.8667,155,-23.2810
304095.5415,6061760.9496,156,-23.0310
303930.2058,6061855.3571,157,-23.0000
303758.3546,6061945.7272,158,-23.0000
303584.5102,6062035.2203,159,-23.0000
303412.5451,6062124.3061,160,-23.2894
303240.1408,6062213.7875,161,-23.7894
303066.8752,6062303.1881,162,-24.0000
302893.3430,6062392.1234,163,-24.0000
302718.5782,6062481.1210,164,-24.0000
302546.7918,6062573.8549,165,-23.9036
302424.0233,6062670.7100,166,-22.4036
302311.4727,6062657.9500,167,-22.5553
302184.2075,6062755.1744,168,-21.0553
302014.5056,6062843.6434,169,-21.0000
301843.2358,6062924.1707,170,-21.0000
301665.7785,6063016.7575,171,-21.1354
301488.4072,6063106.9617,172,-21.6354
301315.1340,6063193.6197,173,-22.0000
301143.7470,6063284.1511,174,-22.0000
300996.8197,6063345.9600,175,-22.0000
300941.7838,6063502.9814,176,-22.0000
300785.7100,6063483.0000,177,-22.0000
314219.2006,6056700.5223,178,-23.8885
314092.9864,6056825.0162,179,-24.0000
313892.9900,6056806.2267,180,-24.0000
313955.2411,6056943.4443,181,-24.0000
313729.6053,6056923.3167,182,-24.0000
313592.4915,6056959.5134,183,-24.0000
313809.2544,6057050.7386,184,-24.0000
313427.1723,6057039.9542,185,-24.0803
313257.3289,6057134.9167,186,-25.0547
313084.8228,6057232.0790,187,-24.4502
312911.4540,6057329.9290,188,-22.6920
312738.5033,6057427.5378,189,-21.2163
312565.6525,6057525.1066,190,-21.1622
312392.7495,6057622.5169,191,-23.1621
312220.1417,6057719.9036,192,-24.0000
312047.7031,6057817.1230,193,-23.7572
311875.4364,6057914.0997,194,-23.7572
311703.9113,6058011.0784,195,-24.0000
311533.1879,6058112.4569,196,-24.9157
311399.0350,6058210.4433,197,-25.9156
311149.1696,6058304.7968,198,-25.4970
311419.9205,6058361.6711,199,-24.3270
311248.1828,6058446.7349,200,-23.4970
310984.7342,6058403.5545,201,-24.3531
310825.9327,6058496.1951,202,-22.8561
310660.1435,6058586.4975,203,-24.0695
310489.0482,6058675.6813,204,-26.5695
310318.2264,6058761.3023,205,-27.0000
310151.2973,6058841.6601,206,-27.0000
309979.7321,6058934.8316,207,-27.0000
309810.4125,6059035.4228,208,-27.0000
309692.4140,6059129.7033,209,-27.0000
309583.2817,6059117.2700,210,-27.0000
309462.3151,6059209.8572,211,-27.0000
309305.7915,6059294.5041,212,-27.0000
309146.7972,6059367.4094,213,-26.9799
308978.5449,6059452.2332,214,-26.0211
308813.0571,6059542.7007,215,-25.1526
308706.4170,6059635.7833,216,-25.1114
308599.7933,6059624.5900,217,-25.3203
308542.2207,6059717.9867,218,-25.0000
308432.9283,6059706.7033,219,-25.0000
308329.9624,6059793.8521,220,-25.0000
308182.2819,6059879.5708,221,-25.0000
308080.1557,6059975.6400,222,-25.0000
307962.7300,6059965.4500,223,-25.5000
307900.7030,6060051.2800,224,-25.7500
307758.3732,6060086.5505,225,-26.0000
307593.3838,6060176.8623,226,-26.0000
307434.6743,6060255.3051,227,-26.0000
307277.4276,6060331.1735,228,-26.0000
307129.6053,6060412.2751,229,-25.5695
306977.2957,6060495.3705,230,-25.3195
306820.6676,6060577.0848,231,-24.9519
306663.6560,6060651.2426,232,-24.2019
306500.4313,6060728.3624,233,-24.0000
306329.3781,6060813.8511,234,-24.0000
306173.6029,6060891.9273,235,-24.1029
306013.6885,6060981.4970,236,-24.5967
305862.5924,6061057.4468,237,-24.9938
305764.7517,6061140.1000,238,-25.0000
305658.4280,6061124.2500,239,-25.0000
305599.2717,6061225.8200,240,-25.0000
305465.6266,6061258.0466,241,-25.0000
305297.8879,6061345.5117,242,-25.0000
305134.3001,6061423.1811,243,-25.0000
304982.0904,6061500.0006,244,-24.6264
304822.9980,6061580.9239,245,-23.8764
304684.7613,6061628.6433,246,-22.9864
304661.0909,6061759.5230,247,-22.1058
304487.9079,6061752.0894,248,-22.1182
304325.2456,6061819.5351,249,-22.1689
304159.8011,6061913.1122,250,-22.6689
303983.7604,6062010.3509,251,-23.0000
303817.4981,6062094.6680,252,-23.0000
303653.2004,6062178.4372,253,-22.5134
303486.1395,6062267.5198,254,-22.5527
303316.1132,6062355.9109,255,-23.5394
303146.7228,6062444.6472,256,-22.9871
302975.5998,6062532.6672,257,-22.9871
302807.4154,6062613.7710,258,-23.6052
302648.9040,6062702.4036,259,-22.7588
302475.1519,6062790.8586,260,-21.6536
302294.5356,6062878.6111,261,-21.0000
302115.0014,6062976.7143,262,-21.0000
301936.8702,6063069.7811,263,-21.0000
301762.6903,6063152.6047,264,-21.0000
301586.5620,6063249.3672,265,-21.3274
301411.2032,6063337.4308,266,-21.8274
301235.2911,6063434.1269,267,-22.0000
301105.2123,6063528.1833,268,-22.0000
300934.3795,6063693.4984,269,-19.5242
301123.6420,6063673.4301,270,-19.5593
314310.1758,6056879.7630,271,-23.6357
314174.9725,6056999.0239,272,-23.9972
314037.3959,6057118.5046,273,-24.0000
313891.4263,6057219.5834,274,-21.8571
313653.6064,6057128.9904,275,-24.0000
313487.0489,6057216.4151,276,-22.3505
313724.7808,6057289.4236,277,-19.8572
313315.3282,6057310.9219,278,-21.8249
313136.2218,6057404.2749,279,-21.4502
312964.6863,6057502.0218,280,-19.9758
312792.4197,6057599.2647,281,-20.0000
312619.1970,6057696.0087,282,-20.4273
312446.8523,6057792.9954,283,-22.4273
312274.8145,6057889.8867,284,-24.0000
312102.9866,6057986.5526,285,-23.7572
311931.6805,6058082.8168,286,-23.7572
311762.1066,6058178.8663,287,-24.0000
311601.1709,6058277.1716,288,-24.3270
311076.6622,6058548.6715,289,-22.4970
311483.3600,6058527.3569,290,-21.6613
311311.4970,6058614.7019,291,-22.0000
311652.5135,6058434.4617,292,-21.4723
311136.7849,6058704.6798,293,-22.0000
310907.2788,6058639.2458,294,-22.0000
310738.0432,6058729.3975,295,-22.5417
310566.4304,6058817.9015,296,-25.0417
310395.8583,6058906.4429,297,-27.0000
310226.2286,6058993.8375,298,-26.1015
310058.0079,6059080.7140,299,-26.1015
309901.2810,6059168.7069,300,-27.0000
309732.9047,6059252.3354,301,-26.9663
309562.4751,6059333.9422,302,-26.9663
309406.6954,6059420.7583,303,-24.9720
309248.2440,6059502.0303,304,-23.7019
309091.0609,6059572.4926,305,-23.0678
308933.8008,6059668.1695,306,-22.3791
308781.0202,6059756.6669,307,-24.0412
308615.8684,6059833.3700,308,-25.0000
308458.3153,6059911.9275,309,-25.0000
308311.9203,6059991.6989,310,-25.0000
308161.8067,6060074.6090,311,-25.0000
308071.3930,6060161.7033,312,-22.3588
307944.1502,6060182.1043,313,-24.1794
307805.6280,6060214.5767,314,-26.0000
307760.7450,6060309.3533,315,-22.8629
307631.6680,6060347.6989,316,-24.4314
307475.4351,6060421.7722,317,-24.3203
307328.1361,6060493.3696,318,-23.3203
307176.3257,6060568.5221,319,-22.7582
307026.1146,6060647.7570,320,-22.7582
306877.4418,6060726.0907,321,-22.5676
306725.3674,6060798.8645,322,-22.5676
306567.5206,6060872.6385,323,-22.8957
306423.9800,6060954.4146,324,-22.8957
306273.2054,6061030.8801,325,-24.0000
306123.1183,6061107.0671,326,-24.2438
305980.7315,6061188.3857,327,-24.7438
305827.4646,6061271.4029,328,-25.0000
305670.1696,6061347.2185,329,-25.0000
305522.5188,6061422.1715,330,-23.5057
305368.8604,6061493.4669,331,-23.0188
305208.5769,6061571.9138,332,-23.2987
305057.3734,6061649.7520,333,-22.6620
304906.7197,6061728.2487,334,-21.9940
304802.3510,6061804.6000,335,-21.5927
304637.8313,6061899.6667,336,-21.9875
304512.1240,6061926.5384,337,-20.7562
304874.0110,6061927.8953,338,-21.6052
304734.6813,6062005.1501,339,-21.9875
304379.0693,6061937.3200,340,-20.7815
304333.2380,6062058.1361,341,-20.3829
304204.3393,6062042.0467,342,-22.1267
304148.8443,6062133.3700,343,-22.3513
304017.7613,6062173.5210,344,-22.4285
303863.5068,6062256.1973,345,-22.4285
303710.5715,6062334.8615,346,-22.0279
303539.1311,6062420.1785,347,-22.0279
303376.3891,6062511.8236,348,-23.4482
303197.9882,6062604.5055,349,-22.4434
303026.4863,6062696.0834,350,-21.7453
302858.5244,6062780.4768,351,-22.1052
302720.2967,6062816.8100,352,-21.3552
302665.2833,6062914.6433,353,-21.0000
302549.0003,6062910.5300,354,-21.0000
302491.4127,6063008.4533,355,-21.0000
302374.5277,6062998.2533,356,-21.0000
302317.3493,6063097.1267,357,-21.0000
302196.4487,6063092.5867,358,-21.0000
302140.1913,6063193.6633,359,-20.8649
302000.4389,6063219.8184,360,-20.9325
301830.5685,6063301.9126,361,-20.6222
301682.5463,6063350.9000,362,-20.3217
301631.7953,6063473.4527,363,-20.8120
301486.4293,6063454.8900,364,-21.5522
301425.2873,6063550.4067,365,-21.8624
301312.8667,6063554.1933,366,-22.0000
301262.7100,6063663.8867,367,-20.7500
300980.2677,6063841.6100,368,-17.0242
301116.7494,6063872.8276,369,-17.0593
301359.5918,6063773.5093,370,-17.9229
301266.4053,6063879.1767,371,-17.0000
314400.2217,6057059.0747,372,-23.2625
314264.1728,6057178.1135,373,-23.7625
314127.0452,6057295.9515,374,-22.5994
313982.7215,6057403.1055,375,-18.4566
313864.9840,6057480.1000,376,-15.8571
313757.6963,6057425.6133,377,-15.7143
313566.0397,6057326.1133,378,-20.7703
313538.9220,6057461.6457,379,-17.0727
313360.9566,6057476.2758,380,-18.5821
313670.8637,6057508.4600,381,-16.0000
313197.7532,6057567.3904,382,-19.5094
313025.1938,6057666.9756,383,-20.0000
312849.2288,6057762.4807,384,-20.0000
312676.5555,6057858.9878,385,-20.2651
312504.7069,6057955.6209,386,-22.2651
312333.0190,6058052.0906,387,-24.0000
312161.5894,6058148.2173,388,-24.0000
311990.7351,6058243.9866,389,-23.9938
311821.4649,6058339.5512,390,-22.8048
310969.5760,6058798.9765,391,-22.0000
311574.7237,6058669.6442,392,-19.4778
311453.6590,6058763.8400,393,-20.9778
311345.7737,6058747.1933,394,-22.0000
311740.2329,6058577.4958,395,-19.0610
311232.0562,6058841.3975,396,-20.5449
311910.4789,6058485.6957,397,-19.6909
311127.0650,6058940.1367,398,-20.5449
311015.1850,6058929.7767,399,-22.0000
310790.6291,6058884.9517,400,-21.7222
310620.1909,6058972.5726,401,-24.2222
310451.2814,6059059.4960,402,-27.0000
310283.0455,6059145.3227,403,-26.1015
310118.3454,6059228.3059,404,-26.1015
309956.2073,6059307.3730,405,-27.0000
309793.0795,6059389.1051,406,-26.5051
309630.2936,6059475.5794,407,-25.2551
309473.5433,6059550.1076,408,-22.4720
309311.9401,6059625.8809,409,-21.2220
309155.8169,6059701.8929,410,-21.7099
309018.4817,6059751.0533,411,-21.7099
309004.0374,6059862.5216,412,-22.0000
308851.1307,6059896.6738,413,-23.3584
308701.4905,6059967.8484,414,-24.8584
308557.3154,6060042.5627,415,-25.0000
308412.0643,6060110.5962,416,-25.0000
308278.9362,6060185.0813,417,-25.0000
308145.6994,6060262.9706,418,-23.6794
308004.0113,6060329.0828,419,-23.9475
307855.7684,6060399.4994,420,-24.1995
307768.7383,6060495.7733,421,-22.4314
307654.7902,6060509.6830,422,-22.4314
307512.4815,6060580.7368,423,-22.3203
307361.9348,6060658.2700,424,-21.3203
307214.6811,6060723.1074,425,-21.3244
307079.3976,6060797.9907,426,-21.8244
306947.3570,6060877.4460,427,-21.8232
306800.3342,6060945.0392,428,-22.3232
306653.7924,6061009.1672,429,-22.8957
306523.5417,6061084.5166,430,-22.8957
306380.7340,6061163.0781,431,-24.0000
306235.1945,6061236.0116,432,-24.0000
306088.1722,6061310.9423,433,-24.2500
306000.0373,6061397.4567,434,-24.7500
305898.3090,6061385.7767,435,-25.0000
305851.2430,6061474.2767,436,-25.0000
305732.8758,6061496.1391,437,-24.5564
305596.7777,6061569.2472,438,-21.8122
305449.5257,6061641.7128,439,-20.5188
305299.8649,6061716.5949,440,-20.7987
305157.7120,6061789.2564,441,-20.7075
305026.5970,6061861.4166,442,-21.2895
304627.9490,6062135.8330,443,-22.0000
304525.3387,6062069.1900,444,-19.5123
304443.9687,6062120.2000,445,-20.7562
304984.0084,6062060.5692,446,-21.0265
304850.7912,6062134.6591,447,-20.5455
305120.4964,6061991.5697,448,-20.1984
304738.3356,6062221.3170,449,-20.5455
304320.1272,6062233.6941,450,-21.6961
304203.8930,6062214.9533,451,-22.1961
304438.6060,6062218.8933,452,-22.0000
304146.1307,6062307.5800,453,-22.8448
304050.8210,6062299.9967,454,-21.8571
303954.4034,6062386.6254,455,-22.4285
303857.7485,6062530.8179,456,-22.7235
303735.9313,6062467.9767,457,-21.9616
303622.5984,6062552.1951,458,-22.2381
303463.5460,6062651.2881,459,-21.4688
303350.4047,6062742.7100,460,-20.1165
303243.3773,6062731.6267,461,-21.6041
303187.2270,6062829.0533,462,-21.3402
303050.2260,6062865.1520,463,-20.9994
302882.4252,6062950.0687,464,-20.7412
302713.1666,6063042.4096,465,-20.9361
302535.5906,6063146.4986,466,-20.9361
302365.5826,6063238.2751,467,-21.0000
302196.0648,6063318.7743,468,-20.9325
302020.7002,6063406.7065,469,-20.9325
301881.4253,6063436.0900,470,-20.2444
301798.8656,6063554.8288,471,-20.5428
301586.3538,6063660.0425,472,-18.6748
301466.9443,6063655.8767,473,-20.2854
301713.0570,6063663.6000,474,-19.8100
301097.5980,6064024.1100,475,-17.0000
301330.8495,6064019.2273,476,-16.7236
301201.3390,6064081.4400,477,-17.0000
301482.7167,6063875.2367,478,-16.1729
301465.8680,6063984.3400,479,-16.2236
301614.7067,6063844.9602,480,-15.5623
314492.6974,6057238.4849,481,-22.6124
314356.6423,6057355.8698,482,-19.9453
314219.9692,6057472.1514,483,-17.4323
314084.6769,6057587.1065,484,-16.5994
313948.5238,6057706.1511,485,-16.0000
313857.6583,6057598.1700,486,-16.0000
313715.3599,6057660.1994,487,-16.0000
313450.2952,6057624.2289,488,-17.3366
313558.0608,6057774.2302,489,-15.3912
313290.9104,6057718.8448,490,-19.0341
313112.7006,6057812.0809,491,-20.0000
312935.0533,6057911.0918,492,-20.0000
312764.3230,6058008.1118,493,-20.0000
312593.6733,6058104.5762,494,-20.2002
312422.3764,6058200.5791,495,-22.1109
312251.3631,6058296.3564,496,-23.3940
312080.9833,6058391.2641,497,-21.6131
310947.0493,6059028.8967,498,-21.8155
310836.1703,6059017.5500,499,-21.6311
311692.2463,6058796.8558,500,-18.7278
311515.1094,6058880.3457,501,-20.0986
311863.7169,6058711.1052,502,-19.0000
311361.3968,6058967.4343,503,-20.4156
312040.8411,6058615.7866,504,-18.3861
311197.2072,6059055.5295,505,-20.5449
312211.9086,6058524.9283,506,-19.1194
311026.2374,6059145.0128,507,-21.8155
310779.2400,6059115.0200,508,-21.6311
310668.6277,6059103.0567,509,-24.5000
310610.9413,6059199.9333,510,-25.7500
310498.8960,6059188.9100,511,-27.0000
310443.0967,6059283.8433,512,-23.7831
310333.2627,6059272.8333,513,-25.3916
310278.2300,6059366.6000,514,-23.7831
310168.1370,6059354.0133,515,-26.9998
310114.4483,6059445.4433,516,-21.6121
310007.7790,6059429.4200,517,-21.6122
309900.6782,6059519.1132,518,-22.0949
309781.6550,6059614.5833,519,-22.9751
309673.9103,6059602.9767,520,-22.6864
309602.9086,6059726.7768,521,-21.8210
309501.9643,6059670.7633,522,-21.9234
309398.1460,6059751.5288,523,-21.9234
309306.9897,6059825.3033,524,-21.3542
309203.7270,6059805.0900,525,-21.6771
309138.9600,6059872.2233,526,-21.6771
309035.6872,6060010.3517,527,-21.5109
308891.6515,6060040.9319,528,-22.4645
